Provided by Dr. Julie Moses of SSI in July 2023, her file designation pzuran15lat3n.out.
Atmosphere measured from 1-bar level at equator. 
   N    ALT(KM)      T(K)      DEN(CM-3)  PRESS(MBAR)  G(CM S-2)     H(KM)     K(CM2 S-1)  BMASS(AMU)
   1  -7.903E+01   1.479E+02   2.753E+20   5.620E+03   8.723E+02   6.066E+01   7.800E+02   2.324E+00
   2  -7.087E+01   1.412E+02   2.512E+20   4.899E+03   8.718E+02   5.798E+01   8.225E+02   2.324E+00
   3  -6.307E+01   1.348E+02   2.294E+20   4.270E+03   8.712E+02   5.538E+01   8.670E+02   2.324E+00
   4  -5.563E+01   1.286E+02   2.096E+20   3.722E+03   8.707E+02   5.286E+01   9.135E+02   2.324E+00
   5  -4.852E+01   1.227E+02   1.916E+20   3.245E+03   8.702E+02   5.045E+01   9.625E+02   2.324E+00
   6  -4.174E+01   1.169E+02   1.752E+20   2.828E+03   8.697E+02   4.812E+01   1.014E+03   2.324E+00
   7  -3.527E+01   1.114E+02   1.603E+20   2.465E+03   8.692E+02   4.587E+01   1.067E+03   2.324E+00
   8  -2.911E+01   1.061E+02   1.467E+20   2.149E+03   8.688E+02   4.370E+01   1.124E+03   2.324E+00
   9  -2.324E+01   1.008E+02   1.346E+20   1.873E+03   8.684E+02   4.156E+01   1.181E+03   2.324E+00
  10  -1.767E+01   9.555E+01   1.238E+20   1.633E+03   8.680E+02   3.940E+01   1.240E+03   2.324E+00
  11  -1.238E+01   9.062E+01   1.138E+20   1.423E+03   8.676E+02   3.738E+01   1.302E+03   2.324E+00
  12  -7.372E+00   8.589E+01   1.046E+20   1.241E+03   8.672E+02   3.544E+01   1.367E+03   2.324E+00
  13  -2.613E+00   8.173E+01   9.584E+19   1.081E+03   8.669E+02   3.374E+01   1.438E+03   2.324E+00
  14   1.919E+00   7.772E+01   8.785E+19   9.427E+02   8.666E+02   3.210E+01   1.513E+03   2.324E+00
  15   6.227E+00   7.388E+01   8.056E+19   8.217E+02   8.663E+02   3.052E+01   1.591E+03   2.324E+00
  16   1.033E+01   7.070E+01   7.338E+19   7.163E+02   8.660E+02   2.922E+01   1.679E+03   2.324E+00
  17   1.427E+01   6.777E+01   6.673E+19   6.244E+02   8.657E+02   2.802E+01   1.774E+03   2.324E+00
  18   1.805E+01   6.531E+01   6.036E+19   5.442E+02   8.654E+02   2.701E+01   1.881E+03   2.324E+00
  19   2.170E+01   6.306E+01   5.449E+19   4.744E+02   8.652E+02   2.609E+01   1.996E+03   2.324E+00
  20   2.523E+01   6.111E+01   4.901E+19   4.135E+02   8.649E+02   2.529E+01   2.122E+03   2.324E+00
  21   2.867E+01   5.950E+01   4.388E+19   3.605E+02   8.647E+02   2.463E+01   2.263E+03   2.324E+00
  22   3.201E+01   5.802E+01   3.922E+19   3.142E+02   8.644E+02   2.402E+01   2.415E+03   2.324E+00
  23   3.528E+01   5.686E+01   3.489E+19   2.739E+02   8.642E+02   2.355E+01   2.585E+03   2.324E+00
  24   3.848E+01   5.579E+01   3.099E+19   2.388E+02   8.640E+02   2.311E+01   2.768E+03   2.324E+00
  25   4.163E+01   5.489E+01   2.746E+19   2.081E+02   8.637E+02   2.274E+01   2.970E+03   2.324E+00
  26   4.474E+01   5.416E+01   2.426E+19   1.814E+02   8.635E+02   2.245E+01   3.191E+03   2.324E+00
  27   4.780E+01   5.352E+01   2.140E+19   1.581E+02   8.633E+02   2.219E+01   3.432E+03   2.324E+00
  28   5.084E+01   5.302E+01   1.883E+19   1.378E+02   8.631E+02   2.198E+01   3.696E+03   2.324E+00
  29   5.385E+01   5.262E+01   1.654E+19   1.202E+02   8.629E+02   2.182E+01   3.985E+03   2.324E+00
  30   5.684E+01   5.245E+01   1.446E+19   1.047E+02   8.627E+02   2.176E+01   4.307E+03   2.324E+00
  31   5.982E+01   5.238E+01   1.262E+19   9.129E+01   8.625E+02   2.174E+01   4.661E+03   2.324E+00
  32   6.281E+01   5.237E+01   1.101E+19   7.958E+01   8.622E+02   2.174E+01   5.047E+03   2.324E+00
  33   6.579E+01   5.232E+01   9.602E+18   6.937E+01   8.620E+02   2.172E+01   5.462E+03   2.324E+00
  34   6.878E+01   5.231E+01   8.372E+18   6.047E+01   8.618E+02   2.172E+01   5.915E+03   2.324E+00
  35   7.176E+01   5.239E+01   7.287E+18   5.271E+01   8.616E+02   2.176E+01   6.411E+03   2.324E+00
  36   7.475E+01   5.253E+01   6.335E+18   4.594E+01   8.614E+02   2.182E+01   6.952E+03   2.324E+00
  37   7.776E+01   5.269E+01   5.505E+18   4.005E+01   8.612E+02   2.190E+01   7.543E+03   2.324E+00
  38   8.077E+01   5.288E+01   4.781E+18   3.491E+01   8.610E+02   2.198E+01   8.185E+03   2.324E+00
  39   8.379E+01   5.310E+01   4.151E+18   3.043E+01   8.608E+02   2.208E+01   8.885E+03   2.324E+00
  40   8.683E+01   5.341E+01   3.597E+18   2.652E+01   8.605E+02   2.221E+01   9.654E+03   2.324E+00
  41   8.989E+01   5.381E+01   3.112E+18   2.312E+01   8.603E+02   2.238E+01   1.050E+04   2.324E+00
  42   9.298E+01   5.427E+01   2.690E+18   2.015E+01   8.601E+02   2.258E+01   1.143E+04   2.324E+00
  43   9.610E+01   5.513E+01   2.308E+18   1.757E+01   8.599E+02   2.294E+01   1.249E+04   2.324E+00
  44   9.928E+01   5.608E+01   1.978E+18   1.531E+01   8.597E+02   2.334E+01   1.366E+04   2.324E+00
  45   1.025E+02   5.721E+01   1.690E+18   1.335E+01   8.594E+02   2.382E+01   1.496E+04   2.324E+00
  46   1.058E+02   5.841E+01   1.443E+18   1.164E+01   8.592E+02   2.433E+01   1.640E+04   2.324E+00
  47   1.092E+02   5.966E+01   1.231E+18   1.014E+01   8.590E+02   2.486E+01   1.798E+04   2.324E+00
  48   1.126E+02   6.105E+01   1.049E+18   8.841E+00   8.587E+02   2.544E+01   1.973E+04   2.324E+00
  49   1.162E+02   6.250E+01   8.931E+17   7.707E+00   8.585E+02   2.605E+01   2.166E+04   2.324E+00
  50   1.198E+02   6.411E+01   7.589E+17   6.718E+00   8.582E+02   2.673E+01   2.380E+04   2.324E+00
  51   1.235E+02   6.590E+01   6.436E+17   5.856E+00   8.580E+02   2.749E+01   2.619E+04   2.324E+00
  52   1.273E+02   6.781E+01   5.452E+17   5.104E+00   8.577E+02   2.829E+01   2.884E+04   2.324E+00
  53   1.313E+02   6.999E+01   4.604E+17   4.449E+00   8.574E+02   2.921E+01   3.181E+04   2.324E+00
  54   1.353E+02   7.222E+01   3.890E+17   3.878E+00   8.571E+02   3.015E+01   3.508E+04   2.324E+00
  55   1.395E+02   7.449E+01   3.287E+17   3.381E+00   8.568E+02   3.111E+01   3.867E+04   2.324E+00
  56   1.439E+02   7.675E+01   2.781E+17   2.947E+00   8.565E+02   3.207E+01   4.261E+04   2.324E+00
  57   1.483E+02   7.898E+01   2.356E+17   2.569E+00   8.562E+02   3.301E+01   4.692E+04   2.324E+00
  58   1.529E+02   8.115E+01   1.999E+17   2.239E+00   8.559E+02   3.393E+01   5.161E+04   2.324E+00
  59   1.577E+02   8.327E+01   1.698E+17   1.952E+00   8.556E+02   3.483E+01   5.673E+04   2.324E+00
  60   1.625E+02   8.530E+01   1.445E+17   1.701E+00   8.552E+02   3.569E+01   6.230E+04   2.324E+00
  61   1.674E+02   8.727E+01   1.231E+17   1.483E+00   8.549E+02   3.653E+01   6.837E+04   2.324E+00
  62   1.725E+02   8.917E+01   1.050E+17   1.293E+00   8.545E+02   3.734E+01   7.497E+04   2.324E+00
  63   1.777E+02   9.099E+01   8.969E+16   1.127E+00   8.542E+02   3.812E+01   8.214E+04   2.324E+00
  64   1.830E+02   9.277E+01   7.669E+16   9.822E-01   8.538E+02   3.888E+01   8.995E+04   2.324E+00
  65   1.884E+02   9.447E+01   6.564E+16   8.562E-01   8.534E+02   3.962E+01   9.845E+04   2.324E+00
  66   1.938E+02   9.616E+01   5.622E+16   7.463E-01   8.531E+02   4.034E+01   1.077E+05   2.324E+00
  67   1.994E+02   9.781E+01   4.817E+16   6.505E-01   8.527E+02   4.105E+01   1.178E+05   2.324E+00
  68   2.051E+02   9.946E+01   4.129E+16   5.671E-01   8.523E+02   4.177E+01   1.288E+05   2.324E+00
  69   2.109E+02   1.011E+02   3.541E+16   4.943E-01   8.519E+02   4.248E+01   1.408E+05   2.324E+00
  70   2.168E+02   1.028E+02   3.036E+16   4.309E-01   8.515E+02   4.320E+01   1.540E+05   2.324E+00
  71   2.227E+02   1.045E+02   2.604E+16   3.756E-01   8.510E+02   4.393E+01   1.683E+05   2.324E+00
  72   2.288E+02   1.062E+02   2.233E+16   3.274E-01   8.506E+02   4.468E+01   1.840E+05   2.324E+00
  73   2.350E+02   1.079E+02   1.915E+16   2.854E-01   8.502E+02   4.543E+01   2.011E+05   2.324E+00
  74   2.413E+02   1.097E+02   1.642E+16   2.488E-01   8.498E+02   4.621E+01   2.199E+05   2.324E+00
  75   2.477E+02   1.115E+02   1.408E+16   2.168E-01   8.493E+02   4.700E+01   2.404E+05   2.324E+00
  76   2.542E+02   1.134E+02   1.207E+16   1.890E-01   8.489E+02   4.780E+01   2.628E+05   2.324E+00
  77   2.608E+02   1.153E+02   1.035E+16   1.648E-01   8.484E+02   4.862E+01   2.873E+05   2.324E+00
  78   2.675E+02   1.172E+02   8.879E+15   1.436E-01   8.480E+02   4.945E+01   3.141E+05   2.324E+00
  79   2.744E+02   1.191E+02   7.616E+15   1.252E-01   8.475E+02   5.028E+01   3.434E+05   2.324E+00
  80   2.813E+02   1.210E+02   6.533E+15   1.091E-01   8.470E+02   5.112E+01   3.753E+05   2.324E+00
  81   2.884E+02   1.229E+02   5.604E+15   9.512E-02   8.465E+02   5.197E+01   4.102E+05   2.324E+00
  82   2.956E+02   1.249E+02   4.809E+15   8.291E-02   8.460E+02   5.282E+01   4.483E+05   2.324E+00
  83   3.029E+02   1.268E+02   4.127E+15   7.227E-02   8.455E+02   5.368E+01   4.898E+05   2.324E+00
  84   3.103E+02   1.288E+02   3.543E+15   6.300E-02   8.450E+02   5.455E+01   5.352E+05   2.324E+00
  85   3.179E+02   1.308E+02   3.042E+15   5.492E-02   8.445E+02   5.541E+01   5.847E+05   2.324E+00
  86   3.256E+02   1.327E+02   2.613E+15   4.787E-02   8.440E+02   5.627E+01   6.386E+05   2.324E+00
  87   3.333E+02   1.347E+02   2.244E+15   4.173E-02   8.434E+02   5.714E+01   6.975E+05   2.324E+00
  88   3.412E+02   1.366E+02   1.928E+15   3.637E-02   8.429E+02   5.802E+01   7.617E+05   2.324E+00
  89   3.493E+02   1.386E+02   1.657E+15   3.170E-02   8.423E+02   5.889E+01   8.317E+05   2.324E+00
  90   3.574E+02   1.406E+02   1.424E+15   2.764E-02   8.418E+02   5.977E+01   9.081E+05   2.324E+00
  91   3.657E+02   1.426E+02   1.224E+15   2.409E-02   8.412E+02   6.065E+01   9.913E+05   2.324E+00
  92   3.740E+02   1.445E+02   1.052E+15   2.100E-02   8.406E+02   6.152E+01   1.082E+06   2.324E+00
  93   3.826E+02   1.465E+02   9.051E+14   1.830E-02   8.401E+02   6.240E+01   1.181E+06   2.324E+00
  94   3.912E+02   1.484E+02   7.784E+14   1.596E-02   8.395E+02   6.329E+01   1.289E+06   2.324E+00
  95   3.999E+02   1.504E+02   6.697E+14   1.391E-02   8.389E+02   6.417E+01   1.406E+06   2.324E+00
  96   4.088E+02   1.524E+02   5.762E+14   1.212E-02   8.383E+02   6.505E+01   1.534E+06   2.324E+00
  97   4.178E+02   1.543E+02   4.959E+14   1.057E-02   8.377E+02   6.594E+01   1.674E+06   2.324E+00
  98   4.269E+02   1.563E+02   4.268E+14   9.212E-03   8.371E+02   6.684E+01   1.826E+06   2.324E+00
  99   4.361E+02   1.583E+02   3.674E+14   8.029E-03   8.364E+02   6.773E+01   1.992E+06   2.324E+00
 100   4.455E+02   1.603E+02   3.163E+14   6.999E-03   8.358E+02   6.862E+01   2.173E+06   2.324E+00
 101   4.550E+02   1.622E+02   2.724E+14   6.101E-03   8.352E+02   6.952E+01   2.369E+06   2.324E+00
 102   4.646E+02   1.642E+02   2.346E+14   5.318E-03   8.345E+02   7.041E+01   2.584E+06   2.324E+00
 103   4.743E+02   1.662E+02   2.021E+14   4.636E-03   8.339E+02   7.131E+01   2.817E+06   2.324E+00
 104   4.841E+02   1.681E+02   1.741E+14   4.041E-03   8.332E+02   7.222E+01   3.072E+06   2.324E+00
 105   4.941E+02   1.701E+02   1.500E+14   3.522E-03   8.325E+02   7.312E+01   3.349E+06   2.324E+00
 106   5.042E+02   1.721E+02   1.292E+14   3.070E-03   8.318E+02   7.403E+01   3.651E+06   2.324E+00
 107   5.144E+02   1.740E+02   1.114E+14   2.676E-03   8.312E+02   7.493E+01   3.979E+06   2.324E+00
 108   5.248E+02   1.760E+02   9.600E+13   2.333E-03   8.305E+02   7.585E+01   4.338E+06   2.324E+00
 109   5.353E+02   1.780E+02   8.276E+13   2.034E-03   8.298E+02   7.676E+01   4.727E+06   2.324E+00
 110   5.459E+02   1.799E+02   7.135E+13   1.773E-03   8.291E+02   7.768E+01   5.152E+06   2.324E+00
 111   5.566E+02   1.851E+02   6.047E+13   1.545E-03   8.283E+02   7.996E+01   5.670E+06   2.324E+00
 112   5.681E+02   2.040E+02   4.782E+13   1.347E-03   8.276E+02   8.822E+01   6.497E+06   2.324E+00
 113   5.807E+02   2.227E+02   3.818E+13   1.174E-03   8.267E+02   9.642E+01   7.403E+06   2.324E+00
 114   5.945E+02   2.416E+02   3.068E+13   1.023E-03   8.258E+02   1.047E+02   8.403E+06   2.324E+00
 115   6.094E+02   2.605E+02   2.481E+13   8.921E-04   8.248E+02   1.130E+02   9.504E+06   2.324E+00
 116   6.254E+02   2.793E+02   2.016E+13   7.776E-04   8.238E+02   1.214E+02   1.072E+07   2.324E+00
 117   6.426E+02   2.981E+02   1.647E+13   6.778E-04   8.226E+02   1.297E+02   1.205E+07   2.324E+00
 118   6.609E+02   3.170E+02   1.350E+13   5.908E-04   8.214E+02   1.381E+02   1.352E+07   2.324E+00
 119   6.804E+02   3.359E+02   1.111E+13   5.150E-04   8.201E+02   1.466E+02   1.514E+07   2.324E+00
 120   7.011E+02   3.547E+02   9.167E+12   4.489E-04   8.188E+02   1.550E+02   1.692E+07   2.324E+00
 121   7.229E+02   3.735E+02   7.588E+12   3.913E-04   8.173E+02   1.635E+02   1.887E+07   2.324E+00
 122   7.459E+02   3.924E+02   6.297E+12   3.411E-04   8.158E+02   1.721E+02   2.103E+07   2.324E+00
 123   7.701E+02   4.112E+02   5.238E+12   2.973E-04   8.143E+02   1.807E+02   2.339E+07   2.324E+00
 124   7.955E+02   4.301E+02   4.365E+12   2.592E-04   8.126E+02   1.894E+02   2.599E+07   2.324E+00
 125   8.218E+02   4.375E+02   3.740E+12   2.259E-04   8.109E+02   1.931E+02   2.842E+07   2.324E+00
 126   8.484E+02   4.416E+02   3.230E+12   1.969E-04   8.092E+02   1.953E+02   3.094E+07   2.324E+00
 127   8.754E+02   4.457E+02   2.790E+12   1.717E-04   8.074E+02   1.975E+02   3.367E+07   2.324E+00
 128   9.027E+02   4.498E+02   2.410E+12   1.496E-04   8.057E+02   1.998E+02   3.665E+07   2.324E+00
 129   9.302E+02   4.539E+02   2.081E+12   1.304E-04   8.039E+02   2.021E+02   3.988E+07   2.324E+00
 130   9.581E+02   4.579E+02   1.798E+12   1.137E-04   8.021E+02   2.043E+02   4.340E+07   2.324E+00
 131   9.863E+02   4.620E+02   1.554E+12   9.911E-05   8.003E+02   2.066E+02   4.722E+07   2.324E+00
 132   1.015E+03   4.662E+02   1.342E+12   8.639E-05   7.985E+02   2.089E+02   5.138E+07   2.324E+00
 133   1.044E+03   4.704E+02   1.159E+12   7.530E-05   7.967E+02   2.113E+02   5.591E+07   2.324E+00
 134   1.073E+03   4.746E+02   1.002E+12   6.564E-05   7.949E+02   2.137E+02   6.082E+07   2.324E+00
 135   1.102E+03   4.788E+02   8.656E+11   5.722E-05   7.930E+02   2.161E+02   6.616E+07   2.324E+00
 136   1.132E+03   4.829E+02   7.480E+11   4.987E-05   7.911E+02   2.185E+02   7.197E+07   2.324E+00
 137   1.162E+03   4.871E+02   6.464E+11   4.347E-05   7.893E+02   2.209E+02   7.828E+07   2.324E+00
 138   1.193E+03   4.913E+02   5.587E+11   3.790E-05   7.874E+02   2.233E+02   8.513E+07   2.324E+00
 139   1.224E+03   4.954E+02   4.829E+11   3.303E-05   7.854E+02   2.257E+02   9.257E+07   2.324E+00
 140   1.255E+03   4.996E+02   4.174E+11   2.879E-05   7.835E+02   2.282E+02   1.007E+08   2.324E+00
 141   1.286E+03   5.038E+02   3.608E+11   2.510E-05   7.816E+02   2.307E+02   1.094E+08   2.324E+00
 142   1.318E+03   5.080E+02   3.119E+11   2.188E-05   7.796E+02   2.332E+02   1.190E+08   2.324E+00
 143   1.350E+03   5.122E+02   2.697E+11   1.907E-05   7.777E+02   2.357E+02   1.293E+08   2.324E+00
 144   1.383E+03   5.164E+02   2.332E+11   1.662E-05   7.757E+02   2.382E+02   1.405E+08   2.324E+00
 145   1.416E+03   5.205E+02   2.016E+11   1.449E-05   7.737E+02   2.408E+02   1.527E+08   2.324E+00
 146   1.449E+03   5.247E+02   1.744E+11   1.263E-05   7.717E+02   2.433E+02   1.659E+08   2.324E+00
 147   1.483E+03   5.289E+02   1.508E+11   1.101E-05   7.696E+02   2.459E+02   1.802E+08   2.324E+00
 148   1.516E+03   5.330E+02   1.304E+11   9.598E-06   7.676E+02   2.485E+02   1.957E+08   2.324E+00
 149   1.551E+03   5.372E+02   1.128E+11   8.366E-06   7.656E+02   2.511E+02   2.126E+08   2.324E+00
 150   1.585E+03   5.414E+02   9.756E+10   7.293E-06   7.635E+02   2.538E+02   2.308E+08   2.324E+00
 151   1.620E+03   5.456E+02   8.439E+10   6.357E-06   7.614E+02   2.564E+02   2.505E+08   2.324E+00
 152   1.656E+03   5.498E+02   7.300E+10   5.541E-06   7.593E+02   2.591E+02   2.719E+08   2.324E+00
 153   1.692E+03   5.539E+02   6.316E+10   4.830E-06   7.572E+02   2.618E+02   2.951E+08   2.324E+00
 154   1.728E+03   5.581E+02   5.464E+10   4.210E-06   7.551E+02   2.645E+02   3.201E+08   2.324E+00
 155   1.764E+03   5.622E+02   4.728E+10   3.670E-06   7.530E+02   2.672E+02   3.471E+08   2.324E+00
 156   1.801E+03   5.664E+02   4.091E+10   3.199E-06   7.508E+02   2.700E+02   3.764E+08   2.324E+00
 157   1.838E+03   5.705E+02   3.540E+10   2.788E-06   7.486E+02   2.727E+02   4.080E+08   2.324E+00
 158   1.876E+03   5.746E+02   3.064E+10   2.431E-06   7.465E+02   2.755E+02   4.421E+08   2.324E+00
 159   1.914E+03   5.788E+02   2.651E+10   2.119E-06   7.443E+02   2.783E+02   4.789E+08   2.324E+00
 160   1.952E+03   5.829E+02   2.295E+10   1.847E-06   7.421E+02   2.811E+02   5.186E+08   2.324E+00
 161   1.991E+03   5.871E+02   1.986E+10   1.610E-06   7.399E+02   2.840E+02   5.613E+08   2.324E+00
 162   2.030E+03   5.912E+02   1.719E+10   1.403E-06   7.376E+02   2.869E+02   6.074E+08   2.324E+00
 163   2.070E+03   5.954E+02   1.488E+10   1.223E-06   7.354E+02   2.897E+02   6.569E+08   2.324E+00
 164   2.110E+03   5.995E+02   1.288E+10   1.066E-06   7.332E+02   2.927E+02   7.102E+08   2.324E+00
 165   2.150E+03   6.037E+02   1.115E+10   9.295E-07   7.309E+02   2.956E+02   7.674E+08   2.324E+00
 166   2.191E+03   6.078E+02   9.654E+09   8.102E-07   7.286E+02   2.986E+02   8.288E+08   2.324E+00
 167   2.232E+03   6.120E+02   8.358E+09   7.062E-07   7.263E+02   3.015E+02   8.946E+08   2.324E+00
 168   2.274E+03   6.161E+02   7.237E+09   6.156E-07   7.240E+02   3.046E+02   9.651E+08   2.324E+00
 169   2.316E+03   6.203E+02   6.266E+09   5.366E-07   7.217E+02   3.076E+02   1.040E+09   2.324E+00
 170   2.358E+03   6.245E+02   5.425E+09   4.677E-07   7.194E+02   3.107E+02   1.121E+09   2.324E+00
 171   2.401E+03   6.286E+02   4.698E+09   4.077E-07   7.170E+02   3.137E+02   1.207E+09   2.324E+00
 172   2.444E+03   6.328E+02   4.068E+09   3.554E-07   7.147E+02   3.169E+02   1.298E+09   2.324E+00
 173   2.488E+03   6.369E+02   3.523E+09   3.098E-07   7.123E+02   3.200E+02   1.395E+09   2.324E+00
 174   2.532E+03   6.411E+02   3.051E+09   2.701E-07   7.099E+02   3.232E+02   1.499E+09   2.324E+00
 175   2.577E+03   6.452E+02   2.642E+09   2.354E-07   7.075E+02   3.264E+02   1.608E+09   2.324E+00
 176   2.622E+03   6.494E+02   2.289E+09   2.052E-07   7.051E+02   3.296E+02   1.724E+09   2.324E+00
 177   2.667E+03   6.535E+02   1.982E+09   1.789E-07   7.027E+02   3.328E+02   1.846E+09   2.324E+00
 178   2.713E+03   6.577E+02   1.717E+09   1.559E-07   7.003E+02   3.361E+02   1.975E+09   2.324E+00
 179   2.760E+03   6.618E+02   1.487E+09   1.359E-07   6.979E+02   3.394E+02   2.110E+09   2.324E+00
 180   2.806E+03   6.660E+02   1.288E+09   1.185E-07   6.954E+02   3.428E+02   2.252E+09   2.324E+00
 181   2.854E+03   6.701E+02   1.116E+09   1.033E-07   6.929E+02   3.461E+02   2.400E+09   2.324E+00
